time = tau * tau_parallel
rms: rms distance of hole to its origin
IPR: inverse participation ratio, IPR(tau) = sum_i (n_h(i,tau))^2, with hole density n_h(i,tau) at site i at time tau.
return prob: probability of the hole to return to its origin, n_h(0,tau).
leg imbalance: difference between the occupation in the two legs of the ladder (see Eq. (15) in the manuscript).


time, rms, IPR, return prob, leg imbalance
0 	 0 	 1 	 1 	 1
0.1 	 0.10015 	 0.980287 	 0.990044 	 1
0.2 	 0.197623 	 0.92697 	 0.962059 	 1
0.3 	 0.289667 	 0.854585 	 0.921215 	 1
0.4 	 0.37344 	 0.779727 	 0.874726 	 1
0.5 	 0.446078 	 0.715117 	 0.830241 	 1
0.6 	 0.504863 	 0.667397 	 0.794363 	 1
0.7 	 0.547497 	 0.638437 	 0.771632 	 1
0.8 	 0.572402 	 0.627864 	 0.76411 	 1
0.9 	 0.579031 	 0.634826 	 0.771508 	 1
1 	 0.568121 	 0.658301 	 0.791657 	 1
1.1 	 0.541911 	 0.696447 	 0.821094 	 1
1.2 	 0.504331 	 0.745728 	 0.855597 	 1
1.3 	 0.461152 	 0.800362 	 0.890591 	 1
1.4 	 0.41997 	 0.852399 	 0.92149 	 1
1.5 	 0.389463 	 0.892679 	 0.944065 	 1
1.6 	 0.377002 	 0.912743 	 0.954918 	 1
1.7 	 0.385006 	 0.907389 	 0.952049 	 1
1.8 	 0.409543 	 0.876929 	 0.935399 	 1
1.9 	 0.443131 	 0.827861 	 0.907192 	 1
2 	 0.478404 	 0.771096 	 0.871883 	 1
2.1 	 0.509782 	 0.718285 	 0.835579 	 1
2.2 	 0.533568 	 0.678215 	 0.804962 	 1
2.3 	 0.547566 	 0.655374 	 0.785914 	 1
2.4 	 0.550736 	 0.651104 	 0.782209 	 1
2.5 	 0.543002 	 0.665593 	 0.794633 	 1
2.6 	 0.525248 	 0.698386 	 0.820802 	 1
2.7 	 0.49949 	 0.746847 	 0.855725 	 1
2.8 	 0.469199 	 0.804252 	 0.892927 	 1
2.9 	 0.439613 	 0.859844 	 0.925816 	 1
3 	 0.417581 	 0.901553 	 0.948933 	 1
3.1 	 0.410141 	 0.919999 	 0.958808 	 1
3.2 	 0.421515 	 0.911482 	 0.954293 	 1
3.3 	 0.450574 	 0.878623 	 0.936424 	 1
3.4 	 0.491451 	 0.828813 	 0.90799 	 1
3.5 	 0.536413 	 0.771633 	 0.872993 	 1
3.6 	 0.578209 	 0.716392 	 0.836127 	 1
3.7 	 0.61107 	 0.670451 	 0.802321 	 1
3.8 	 0.630938 	 0.638552 	 0.776282 	 1
3.9 	 0.635441 	 0.623079 	 0.762009 	 1
4 	 0.623787 	 0.624982 	 0.762236 	 1
4.1 	 0.596631 	 0.644761 	 0.777877 	 1
4.2 	 0.555944 	 0.682706 	 0.807577 	 1
4.3 	 0.504937 	 0.73776 	 0.847579 	 1
4.4 	 0.448134 	 0.805318 	 0.892044 	 1
4.5 	 0.391726 	 0.875546 	 0.933921 	 1
4.6 	 0.344122 	 0.934284 	 0.966224 	 1
4.7 	 0.31564 	 0.967274 	 0.983451 	 1
4.8 	 0.314675 	 0.96592 	 0.982756 	 1
4.9 	 0.341284 	 0.93114 	 0.964548 	 1
5 	 0.387011 	 0.872795 	 0.932348 	 1
5.1 	 0.441274 	 0.805168 	 0.891961 	 1
5.2 	 0.495423 	 0.741464 	 0.850211 	 1
5.3 	 0.543197 	 0.690397 	 0.813599 	 1
5.4 	 0.580215 	 0.655896 	 0.787216 	 1
5.5 	 0.603619 	 0.638825 	 0.774121 	 1
5.6 	 0.61196 	 0.638856 	 0.77522 	 1
5.7 	 0.60524 	 0.65536 	 0.789501 	 1
5.8 	 0.585002 	 0.687198 	 0.814439 	 1
5.9 	 0.554438 	 0.731906 	 0.846419 	 1
6 	 0.518429 	 0.784854 	 0.881102 	 1
6.1 	 0.483389 	 0.838871 	 0.913783 	 1
6.2 	 0.45653 	 0.88476 	 0.939815 	 1
6.3 	 0.444128 	 0.912999 	 0.955147 	 1
6.4 	 0.449067 	 0.916435 	 0.956984 	 1
6.5 	 0.469526 	 0.893101 	 0.944436 	 1
6.6 	 0.500231 	 0.847659 	 0.918972 	 1
6.7 	 0.534986 	 0.790284 	 0.884472 	 1
6.8 	 0.568439 	 0.733163 	 0.846732 	 1
6.9 	 0.596658 	 0.686454 	 0.812463 	 1
7 	 0.617042 	 0.656036 	 0.787961 	 1
7.1 	 0.628094 	 0.644007 	 0.777791 	 1
7.2 	 0.629244 	 0.650704 	 0.783804 	 1
7.3 	 0.620829 	 0.675932 	 0.804761 	 1
7.4 	 0.604204 	 0.718163 	 0.836647 	 1
7.5 	 0.581939 	 0.772615 	 0.873584 	 1
7.6 	 0.557977 	 0.830377 	 0.909082 	 1
7.7 	 0.537517 	 0.87998 	 0.937301 	 1
7.8 	 0.526239 	 0.910827 	 0.954005 	 1
7.9 	 0.528637 	 0.916562 	 0.957057 	 1
8 	 0.5461 	 0.896698 	 0.94645 	 1
8.1 	 0.576135 	 0.856075 	 0.924 	 1
8.2 	 0.613411 	 0.80291 	 0.892904 	 1
8.3 	 0.651639 	 0.746474 	 0.857279 	 1
8.4 	 0.685076 	 0.695156 	 0.821773 	 1
8.5 	 0.709311 	 0.655235 	 0.79118 	 1
8.6 	 0.72155 	 0.630474 	 0.769991 	 1
8.7 	 0.720637 	 0.622551 	 0.761812 	 1
8.8 	 0.706949 	 0.632054 	 0.768691 	 1
8.9 	 0.682224 	 0.659305 	 0.790506 	 1
9 	 0.649376 	 0.704029 	 0.824634 	 1
9.1 	 0.612299 	 0.763574 	 0.866124 	 1
9.2 	 0.575687 	 0.830794 	 0.90842 	 1
9.3 	 0.544727 	 0.893696 	 0.944548 	 1
9.4 	 0.524473 	 0.93824 	 0.96849 	 1
9.5 	 0.518721 	 0.95344 	 0.976387 	 1
9.6 	 0.528715 	 0.935912 	 0.967275 	 1
9.7 	 0.552577 	 0.891129 	 0.943183 	 1
9.8 	 0.585988 	 0.830742 	 0.908597 	 1
9.9 	 0.623541 	 0.767825 	 0.869471 	 1
10 	 0.659916 	 0.712799 	 0.832066 	 1
10.1 	 0.690565 	 0.671775 	 0.801883 	 1
10.2 	 0.71205 	 0.647191 	 0.782906 	 1
10.3 	 0.722208 	 0.639471 	 0.777226 	 1
10.4 	 0.720261 	 0.648322 	 0.785013 	 1
10.5 	 0.706885 	 0.673074 	 0.804718 	 1
10.6 	 0.684235 	 0.712121 	 0.833388 	 1
10.7 	 0.655877 	 0.761978 	 0.867013 	 1
10.8 	 0.626551 	 0.816526 	 0.900901 	 1
10.9 	 0.601598 	 0.867047 	 0.930131 	 1
11 	 0.585951 	 0.903511 	 0.950138 	 1
11.1 	 0.582801 	 0.917168 	 0.957416 	 1
11.2 	 0.592571 	 0.903683 	 0.950238 	 1
11.3 	 0.612918 	 0.865311 	 0.929198 	 1
11.4 	 0.639757 	 0.81065 	 0.89737 	 1
11.5 	 0.668574 	 0.751696 	 0.859942 	 1
11.6 	 0.69535 	 0.699693 	 0.823353 	 1
11.7 	 0.716981 	 0.662109 	 0.794079 	 1
11.8 	 0.731381 	 0.642208 	 0.777354 	 1
11.9 	 0.737443 	 0.640711 	 0.776126 	 1
12 	 0.735013 	 0.657559 	 0.790501 	 1
12.1 	 0.7249 	 0.692079 	 0.817794 	 1
12.2 	 0.70893 	 0.741513 	 0.853156 	 1
12.3 	 0.689985 	 0.799518 	 0.890599 	 1
12.4 	 0.671874 	 0.856326 	 0.924147 	 1
12.5 	 0.658885 	 0.900986 	 0.948834 	 1
12.6 	 0.654895 	 0.92457 	 0.961371 	 1
12.7 	 0.662198 	 0.922706 	 0.960395 	 1
12.8 	 0.680633 	 0.896422 	 0.946392 	 1
12.9 	 0.707573 	 0.851348 	 0.921411 	 1
13 	 0.738786 	 0.795938 	 0.888736 	 1
13.1 	 0.769614 	 0.739424 	 0.852565 	 1
13.2 	 0.795933 	 0.689973 	 0.817679 	 1
13.3 	 0.814715 	 0.653413 	 0.789016 	 1
13.4 	 0.824239 	 0.632859 	 0.771053 	 1
13.5 	 0.824079 	 0.629402 	 0.767048 	 1
13.6 	 0.814979 	 0.643323 	 0.778276 	 1
13.7 	 0.79866 	 0.674667 	 0.803507 	 1
13.8 	 0.777629 	 0.722264 	 0.838977 	 1
13.9 	 0.754968 	 0.781604 	 0.878914 	 1
14 	 0.734097 	 0.843437 	 0.916578 	 1
14.1 	 0.718446 	 0.894983 	 0.945561 	 1
14.2 	 0.710963 	 0.923953 	 0.961049 	 1
14.3 	 0.7135 	 0.923354 	 0.960733 	 1
14.4 	 0.726282 	 0.89424 	 0.94517 	 1
14.5 	 0.747734 	 0.84487 	 0.917525 	 1
14.6 	 0.7748 	 0.787013 	 0.88281 	 1
14.7 	 0.803589 	 0.731743 	 0.846839 	 1
14.8 	 0.830091 	 0.686832 	 0.815177 	 1
14.9 	 0.850787 	 0.656368 	 0.792303 	 1
15 	 0.863082 	 0.64184 	 0.781114 	 1
15.1 	 0.865602 	 0.643471 	 0.782747 	 1
15.2 	 0.85835 	 0.660945 	 0.796652 	 1
15.3 	 0.842733 	 0.693301 	 0.820794 	 1
15.4 	 0.821434 	 0.738218 	 0.851906 	 1
15.5 	 0.798114 	 0.791113 	 0.885765 	 1
15.6 	 0.776894 	 0.844635 	 0.917572 	 1
15.7 	 0.761625 	 0.88919 	 0.942475 	 1
15.8 	 0.755065 	 0.914909 	 0.95627 	 1
15.9 	 0.758231 	 0.914755 	 0.956187 	 1
16 	 0.770247 	 0.887512 	 0.941571 	 1
16.1 	 0.788757 	 0.838919 	 0.914258 	 1
16.2 	 0.810653 	 0.77994 	 0.878466 	 1
16.3 	 0.832769 	 0.722817 	 0.84016 	 1
16.4 	 0.852341 	 0.677109 	 0.805973 	 1
16.5 	 0.867228 	 0.647888 	 0.781915 	 1
16.6 	 0.875988 	 0.636655 	 0.772173 	 1
16.7 	 0.877904 	 0.643458 	 0.778298 	 1
16.8 	 0.873018 	 0.668056 	 0.798987 	 1
16.9 	 0.862189 	 0.709173 	 0.830466 	 1
17 	 0.847158 	 0.762762 	 0.867348 	 1
17.1 	 0.830533 	 0.821133 	 0.903709 	 1
17.2 	 0.815588 	 0.874048 	 0.934123 	 1
17.3 	 0.805779 	 0.911403 	 0.954438 	 1
17.4 	 0.803969 	 0.926092 	 0.962204 	 1
17.5 	 0.811605 	 0.915775 	 0.956763 	 1
17.6 	 0.828206 	 0.88308 	 0.939109 	 1
17.7 	 0.851465 	 0.834547 	 0.911651 	 1
17.8 	 0.877894 	 0.77888 	 0.877957 	 1
17.9 	 0.903677 	 0.724989 	 0.842461 	 1
18 	 0.925416 	 0.680271 	 0.810073 	 1
18.1 	 0.940617 	 0.649584 	 0.785622 	 1
18.2 	 0.947908 	 0.635287 	 0.773133 	 1
18.3 	 0.94707 	 0.638189 	 0.775056 	 1
18.4 	 0.938943 	 0.658542 	 0.791632 	 1
18.5 	 0.925258 	 0.695975 	 0.820591 	 1
18.6 	 0.908446 	 0.74799 	 0.857359 	 1
18.7 	 0.891404 	 0.808067 	 0.895781 	 1
18.8 	 0.877186 	 0.865322 	 0.929262 	 1
18.9 	 0.868607 	 0.90697 	 0.952069 	 1
19 	 0.867758 	 0.922813 	 0.960448 	 1
19.1 	 0.875552 	 0.909283 	 0.953302 	 1
19.2 	 0.891466 	 0.870654 	 0.93228 	 1
19.3 	 0.913594 	 0.816882 	 0.901307 	 1
19.4 	 0.939021 	 0.759597 	 0.86571 	 1
19.5 	 0.964367 	 0.708526 	 0.831205 	 1
19.6 	 0.986358 	 0.669829 	 0.80295 	 1
19.7 	 1.00231 	 0.646389 	 0.784849 	 1
19.8 	 1.01045 	 0.639085 	 0.779175 	 1
19.9 	 1.01015 	 0.647952 	 0.786458 	 1
20 	 1.00197 	 0.672569 	 0.805556 	 1
20.1 	 0.987605 	 0.71159 	 0.833826 	 1
20.2 	 0.969679 	 0.761745 	 0.867383 	 1
20.3 	 0.951392 	 0.816957 	 0.901472 	 1
20.4 	 0.936015 	 0.868292 	 0.931004 	 1
20.5 	 0.926318 	 0.905367 	 0.951237 	 1
20.6 	 0.924048 	 0.919142 	 0.958544 	 1
20.7 	 0.929615 	 0.905214 	 0.951147 	 1
20.8 	 0.942106 	 0.865972 	 0.929625 	 1
20.9 	 0.959579 	 0.810208 	 0.89704 	 1
21 	 0.979519 	 0.750037 	 0.858573 	 1
21.1 	 0.999281 	 0.696674 	 0.820646 	 1
21.2 	 1.01643 	 0.657426 	 0.789735 	 1
21.3 	 1.02895 	 0.635369 	 0.771108 	 1
21.4 	 1.03541 	 0.631117 	 0.767814 	 1
21.5 	 1.0351 	 0.644691 	 0.780166 	 1
21.6 	 1.02812 	 0.675776 	 0.80581 	 1
21.7 	 1.01551 	 0.72237 	 0.840324 	 1
21.8 	 0.999306 	 0.779269 	 0.87816 	 1
21.9 	 0.982335 	 0.837935 	 0.913658 	 1
22 	 0.967899 	 0.888123 	 0.941894 	 1
22.1 	 0.959143 	 0.920478 	 0.959252 	 1
22.2 	 0.958316 	 0.928939 	 0.963694 	 1
22.3 	 0.966135 	 0.912156 	 0.954841 	 1
22.4 	 0.981568 	 0.873683 	 0.933929 	 1
22.5 	 1.00213 	 0.821 	 0.903704 	 1
22.6 	 1.02455 	 0.763637 	 0.868209 	 1
22.7 	 1.04555 	 0.710901 	 0.832424 	 1
22.8 	 1.06238 	 0.669921 	 0.801701 	 1
22.9 	 1.07322 	 0.644811 	 0.780999 	 1
23 	 1.07727 	 0.637201 	 0.774007 	 1
23.1 	 1.07471 	 0.647531 	 0.782337 	 1
23.2 	 1.06658 	 0.675798 	 0.805005 	 1
23.3 	 1.05461 	 0.720757 	 0.838409 	 1
23.4 	 1.04102 	 0.77794 	 0.876881 	 1
23.5 	 1.02831 	 0.838305 	 0.913732 	 1
23.6 	 1.01897 	 0.889366 	 0.942553 	 1
23.7 	 1.01518 	 0.918997 	 0.958466 	 1
23.8 	 1.01838 	 0.92004 	 0.959017 	 1
23.9 	 1.02898 	 0.893017 	 0.944535 	 1
24 	 1.04619 	 0.84547 	 0.917896 	 1
24.1 	 1.06803 	 0.788587 	 0.883811 	 1
24.2 	 1.09178 	 0.733248 	 0.84786 	 1
24.3 	 1.11433 	 0.68741 	 0.815527 	 1
24.4 	 1.13281 	 0.655527 	 0.791414 	 1
24.5 	 1.14492 	 0.639425 	 0.778733 	 1
24.6 	 1.14931 	 0.639587 	 0.779048 	 1
24.7 	 1.14579 	 0.655979 	 0.792216 	 1
24.8 	 1.13531 	 0.688017 	 0.816465 	 1
24.9 	 1.11992 	 0.733778 	 0.848574 	 1
25 	 1.10245 	 0.788891 	 0.884166 	 1
25.1 	 1.08614 	 0.84583 	 0.918139 	 1
25.2 	 1.07401 	 0.894402 	 0.94528 	 1
25.3 	 1.06837 	 0.923869 	 0.961034 	 1
25.4 	 1.07036 	 0.926349 	 0.962338 	 1
25.5 	 1.07974 	 0.900073 	 0.948335 	 1
25.6 	 1.09513 	 0.850653 	 0.920761 	 1
25.7 	 1.11432 	 0.789294 	 0.883832 	 1
25.8 	 1.13474 	 0.728682 	 0.843592 	 1
25.9 	 1.15385 	 0.678841 	 0.806818 	 1
26 	 1.16943 	 0.645223 	 0.779714 	 1
26.1 	 1.17975 	 0.62957 	 0.766712 	 1
26.2 	 1.18375 	 0.632053 	 0.769674 	 1
26.3 	 1.18115 	 0.65255 	 0.787675 	 1
26.4 	 1.1726 	 0.690124 	 0.817359 	 1
26.5 	 1.15962 	 0.741463 	 0.853725 	 1
26.6 	 1.14457 	 0.799872 	 0.891083 	 1
26.7 	 1.13034 	 0.855831 	 0.923961 	 1
26.8 	 1.11984 	 0.899038 	 0.947822 	 1
26.9 	 1.11545 	 0.921041 	 0.959542 	 1
27 	 1.11837 	 0.91748 	 0.957661 	 1
27.1 	 1.12838 	 0.889222 	 0.942488 	 1
27.2 	 1.14388 	 0.84211 	 0.916063 	 1
27.3 	 1.1623 	 0.785403 	 0.882011 	 1
27.4 	 1.18077 	 0.729339 	 0.845209 	 1
27.5 	 1.19661 	 0.682625 	 0.811245 	 1
27.6 	 1.20781 	 0.650859 	 0.785631 	 1
27.7 	 1.21323 	 0.636534 	 0.772874 	 1
27.8 	 1.21259 	 0.640342 	 0.77556 	 1
27.9 	 1.20647 	 0.662457 	 0.793699 	 1
28 	 1.19616 	 0.7024 	 0.824547 	 1
28.1 	 1.18348 	 0.757258 	 0.862997 	 1
28.2 	 1.17062 	 0.819762 	 0.90251 	 1
28.3 	 1.15992 	 0.878323 	 0.936368 	 1
28.4 	 1.15358 	 0.919961 	 0.958961 	 1
28.5 	 1.15329 	 0.93488 	 0.966802 	 1
28.6 	 1.1599 	 0.920117 	 0.959041 	 1
28.7 	 1.17317 	 0.880263 	 0.937433 	 1
28.8 	 1.19171 	 0.825152 	 0.905814 	 1
28.9 	 1.21322 	 0.766113 	 0.869292 	 1
29 	 1.23486 	 0.712747 	 0.83336 	 1
29.1 	 1.25372 	 0.671384 	 0.803112 	 1
29.2 	 1.26735 	 0.645239 	 0.782652 	 1
29.3 	 1.27407 	 0.635521 	 0.774707 	 1
29.4 	 1.27325 	 0.642577 	 0.780407 	 1
29.5 	 1.2654 	 0.666426 	 0.79917 	 1
29.6 	 1.25206 	 0.706356 	 0.828684 	 1
29.7 	 1.23563 	 0.759723 	 0.865026 	 1
29.8 	 1.21902 	 0.82057 	 0.903 	 1
29.9 	 1.20511 	 0.879107 	 0.936741 	 1
30 	 1.19634 	 0.923099 	 0.960599 	 1
30.1 	 1.19428 	 0.941357 	 0.970167 	 1
30.2 	 1.19934 	 0.928106 	 0.963238 	 1
30.3 	 1.21084 	 0.885874 	 0.940435 	 1
30.4 	 1.22722 	 0.8249 	 0.905294 	 1
30.5 	 1.24633 	 0.759101 	 0.8637 	 1
30.6 	 1.26584 	 0.700905 	 0.822773 	 1
30.7 	 1.28343 	 0.657974 	 0.789456 	 1
30.8 	 1.29711 	 0.633221 	 0.769156 	 1
30.9 	 1.30541 	 0.627003 	 0.764779 	 1
31 	 1.30753 	 0.639108 	 0.776363 	 1
31.1 	 1.30354 	 0.668959 	 0.801329 	 1
31.2 	 1.29441 	 0.714324 	 0.835201 	 1
31.3 	 1.28201 	 0.770023 	 0.872538 	 1
31.4 	 1.26885 	 0.827848 	 0.907851 	 1
31.5 	 1.25773 	 0.877965 	 0.936323 	 1
31.6 	 1.25112 	 0.911148 	 0.954287 	 1
31.7 	 1.25069 	 0.920998 	 0.959499 	 1
31.8 	 1.25684 	 0.905523 	 0.95128 	 1
31.9 	 1.26868 	 0.867711 	 0.930599 	 1
32 	 1.28425 	 0.814927 	 0.900079 	 1
32.1 	 1.301 	 0.757122 	 0.863874 	 1
32.2 	 1.31639 	 0.704265 	 0.827307 	 1
32.3 	 1.32825 	 0.663969 	 0.796203 	 1
32.4 	 1.33511 	 0.640418 	 0.775953 	 1
32.5 	 1.33631 	 0.63507 	 0.770462 	 1
32.6 	 1.33197 	 0.648277 	 0.78124 	 1
32.7 	 1.32294 	 0.680101 	 0.80691 	 1
32.8 	 1.31069 	 0.729208 	 0.843304 	 1
32.9 	 1.29714 	 0.790568 	 0.884208 	 1
33 	 1.28451 	 0.854195 	 0.922566 	 1
33.1 	 1.27504 	 0.906787 	 0.951869 	 1
33.2 	 1.27067 	 0.936007 	 0.967378 	 1
33.3 	 1.27267 	 0.935099 	 0.966903 	 1
33.4 	 1.28134 	 0.905205 	 0.951016 	 1
33.5 	 1.29584 	 0.854348 	 0.922724 	 1
33.6 	 1.31433 	 0.794011 	 0.886768 	 1
33.7 	 1.33419 	 0.735322 	 0.848732 	 1
33.8 	 1.35257 	 0.686518 	 0.81418 	 1
33.9 	 1.36682 	 0.652301 	 0.787925 	 1
34 	 1.37496 	 0.634638 	 0.773512 	 1
34.1 	 1.37594 	 0.634079 	 0.772898 	 1
34.2 	 1.36983 	 0.650712 	 0.786279 	 1
34.3 	 1.35777 	 0.684239 	 0.812038 	 1
34.4 	 1.34181 	 0.733058 	 0.846817 	 1
34.5 	 1.32459 	 0.792799 	 0.885775 	 1
34.6 	 1.30895 	 0.855235 	 0.923115 	 1
34.7 	 1.2974 	 0.908752 	 0.952887 	 1
34.8 	 1.29175 	 0.941031 	 0.969989 	 1
34.9 	 1.29284 	 0.943332 	 0.971186 	 1
35 	 1.30045 	 0.914325 	 0.955882 	 1
35.1 	 1.31344 	 0.86111 	 0.926422 	 1
35.2 	 1.33 	 0.796489 	 0.887753 	 1
35.3 	 1.34796 	 0.733974 	 0.846503 	 1
35.4 	 1.36505 	 0.683501 	 0.809669 	 1
35.5 	 1.37921 	 0.650015 	 0.783254 	 1
35.6 	 1.38879 	 0.634839 	 0.771191 	 1
35.7 	 1.39276 	 0.637873 	 0.774786 	 1
35.8 	 1.3909 	 0.658664 	 0.792729 	 1
35.9 	 1.38384 	 0.69585 	 0.821592 	 1
36 	 1.3731 	 0.745871 	 0.856596 	 1
36.1 	 1.36085 	 0.802244 	 0.892438 	 1
36.2 	 1.34964 	 0.856058 	 0.924025 	 1
36.3 	 1.34187 	 0.897606 	 0.947015 	 1
36.4 	 1.33931 	 0.918567 	 0.958214 	 1
36.5 	 1.34269 	 0.914157 	 0.95588 	 1
36.6 	 1.35159 	 0.884646 	 0.93997 	 1
36.7 	 1.36452 	 0.835674 	 0.912316 	 1
36.8 	 1.37938 	 0.776947 	 0.876615 	 1
36.9 	 1.39386 	 0.719495 	 0.838119 	 1
37 	 1.40588 	 0.672582 	 0.802959 	 1
37.1 	 1.41385 	 0.641789 	 0.777148 	 1
37.2 	 1.41682 	 0.629239 	 0.765447 	 1
37.3 	 1.41452 	 0.635358 	 0.77033 	 1
37.4 	 1.40732 	 0.660333 	 0.791361 	 1
37.5 	 1.39623 	 0.703664 	 0.825144 	 1
37.6 	 1.38278 	 0.761956 	 0.865932 	 1
37.7 	 1.36892 	 0.826984 	 0.90674 	 1
37.8 	 1.35683 	 0.886248 	 0.94071 	 1
37.9 	 1.34856 	 0.9265 	 0.962396 	 1
38 	 1.34573 	 0.938518 	 0.968684 	 1
38.1 	 1.34917 	 0.920413 	 0.95918 	 1
38.2 	 1.35861 	 0.87777 	 0.936036 	 1
38.3 	 1.3727 	 0.82093 	 0.903335 	 1
38.4 	 1.3892 	 0.761198 	 0.866242 	 1
38.5 	 1.40539 	 0.707873 	 0.830151 	 1
38.6 	 1.41858 	 0.666992 	 0.800001 	 1
38.7 	 1.42657 	 0.641614 	 0.779789 	 1
38.8 	 1.428 	 0.632879 	 0.772245 	 1
38.9 	 1.42257 	 0.641107 	 0.778576 	 1
39 	 1.41105 	 0.6663 	 0.79826 	 1
39.1 	 1.39516 	 0.707742 	 0.828925 	 1
39.2 	 1.37727 	 0.762695 	 0.866438 	 1
39.3 	 1.36002 	 0.82488 	 0.90529 	 1
39.4 	 1.3459 	 0.883974 	 0.939329 	 1
39.5 	 1.33687 	 0.927297 	 0.962789 	 1
39.6 	 1.33404 	 0.943758 	 0.971407 	 1
39.7 	 1.33764 	 0.928382 	 0.963368 	 1
39.8 	 1.34696 	 0.884794 	 0.939808 	 1
39.9 	 1.36061 	 0.823922 	 0.90469 	 1
40 	 1.37668 	 0.759567 	 0.86407 	 1
40.1 	 1.39306 	 0.703485 	 0.824907 	 1
40.2 	 1.40761 	 0.662699 	 0.793717 	 1
40.3 	 1.41843 	 0.639851 	 0.775379 	 1
40.4 	 1.42413 	 0.635279 	 0.772352 	 1
40.5 	 1.42401 	 0.648699 	 0.78445 	 1
40.6 	 1.41825 	 0.679314 	 0.809138 	 1
40.7 	 1.40791 	 0.724731 	 0.8422 	 1
40.8 	 1.39488 	 0.779863 	 0.878546 	 1
40.9 	 1.3816 	 0.836812 	 0.912952 	 1
41 	 1.37064 	 0.88594 	 0.940659 	 1
41.1 	 1.36417 	 0.917823 	 0.957825 	 1
41.2 	 1.36349 	 0.92556 	 0.961903 	 1
41.3 	 1.36876 	 0.906827 	 0.951976 	 1
41.4 	 1.379 	 0.864933 	 0.929016 	 1
41.5 	 1.3923 	 0.808257 	 0.895976 	 1
41.6 	 1.40636 	 0.747915 	 0.857591 	 1
41.7 	 1.41883 	 0.69448 	 0.819806 	 1
41.8 	 1.42778 	 0.655313 	 0.788849 	 1
41.9 	 1.43187 	 0.633857 	 0.770108 	 1
42 	 1.4305 	 0.630943 	 0.767037 	 1
42.1 	 1.4238 	 0.646624 	 0.780399 	 1
42.2 	 1.4126 	 0.68068 	 0.808037 	 1
42.3 	 1.39833 	 0.731172 	 0.845247 	 1
42.4 	 1.38284 	 0.792322 	 0.885684 	 1
42.5 	 1.36826 	 0.85387 	 0.922574 	 1
42.6 	 1.35667 	 0.903152 	 0.949982 	 1
42.7 	 1.34982 	 0.929194 	 0.963828 	 1
42.8 	 1.34878 	 0.926587 	 0.962463 	 1
42.9 	 1.35368 	 0.897074 	 0.946723 	 1
43 	 1.36361 	 0.848288 	 0.919542 	 1
43.1 	 1.37678 	 0.790699 	 0.885281 	 1
43.2 	 1.39079 	 0.73443 	 0.848988 	 1
43.3 	 1.40312 	 0.687187 	 0.815718 	 1
43.4 	 1.41151 	 0.653653 	 0.789984 	 1
43.5 	 1.41438 	 0.636017 	 0.775325 	 1
43.6 	 1.41103 	 0.635026 	 0.773948 	 1
43.7 	 1.40175 	 0.65088 	 0.786412 	 1
43.8 	 1.38774 	 0.683395 	 0.811387 	 1
43.9 	 1.37088 	 0.731111 	 0.845589 	 1
44 	 1.35349 	 0.789669 	 0.884023 	 1
44.1 	 1.33794 	 0.850572 	 0.920623 	 1
44.2 	 1.32631 	 0.901826 	 0.949245 	 1
44.3 	 1.32011 	 0.931127 	 0.96484 	 1
44.4 	 1.32007 	 0.930505 	 0.964514 	 1
44.5 	 1.32606 	 0.899892 	 0.948198 	 1
44.6 	 1.33716 	 0.847321 	 0.918734 	 1
44.7 	 1.35178 	 0.785547 	 0.881329 	 1
44.8 	 1.36784 	 0.727143 	 0.842507 	 1
44.9 	 1.38308 	 0.680914 	 0.808819 	 1
45 	 1.39533 	 0.651134 	 0.785626 	 1
45.1 	 1.40277 	 0.639003 	 0.776236 	 1
45.2 	 1.40428 	 0.644487 	 0.781533 	 1
45.3 	 1.3996 	 0.667066 	 0.800095 	 1
45.4 	 1.38942 	 0.705191 	 0.828678 	 1
45.5 	 1.37538 	 0.755257 	 0.862868 	 1
45.6 	 1.35983 	 0.811015 	 0.897746 	 1
45.7 	 1.34543 	 0.863939 	 0.928476 	 1
45.8 	 1.33463 	 0.904572 	 0.950789 	 1
45.9 	 1.32915 	 0.92457 	 0.96141 	 1
46 	 1.32964 	 0.918975 	 0.958463 	 1
46.1 	 1.33555 	 0.888016 	 0.941839 	 1
46.2 	 1.34533 	 0.837583 	 0.913432 	 1
46.3 	 1.35684 	 0.777795 	 0.877115 	 1
46.4 	 1.36782 	 0.719956 	 0.838341 	 1
46.5 	 1.37623 	 0.673254 	 0.803342 	 1
46.6 	 1.38058 	 0.642937 	 0.778053 	 1
46.7 	 1.38003 	 0.630775 	 0.766961 	 1
46.8 	 1.37437 	 0.636945 	 0.772168 	 1
46.9 	 1.36409 	 0.661402 	 0.792893 	 1
47 	 1.35024 	 0.703323 	 0.825574 	 1
47.1 	 1.33434 	 0.759051 	 0.86456 	 1
47.2 	 1.31832 	 0.820541 	 0.903234 	 1
47.3 	 1.30423 	 0.876179 	 0.935296 	 1
47.4 	 1.29406 	 0.914106 	 0.955885 	 1
47.5 	 1.28933 	 0.926292 	 0.962314 	 1
47.6 	 1.29081 	 0.911107 	 0.954295 	 1
47.7 	 1.29824 	 0.87325 	 0.93371 	 1
47.8 	 1.31032 	 0.821515 	 0.904068 	 1
47.9 	 1.3249 	 0.765813 	 0.869841 	 1
48 	 1.3394 	 0.714758 	 0.835834 	 1
