time = tau * tau_parallel
rms: rms distance of hole to its origin
IPR: inverse participation ratio, IPR(tau) = sum_i (n_h(i,tau))^2, with hole density n_h(i,tau) at site i at time tau.
return prob: probability of the hole to return to its origin, n_h(0,tau).
leg imbalance: difference between the occupation in the two legs of the ladder (see Eq. (15) in the manuscript).


time, rms, IPR, return prob, leg imbalance
0 	 0 	 1 	 1 	 1
0.1 	 0.100146 	 0.980288 	 0.990045 	 1
0.2 	 0.197578 	 0.927 	 0.962076 	 1
0.3 	 0.289526 	 0.854706 	 0.921287 	 1
0.4 	 0.373163 	 0.779985 	 0.874895 	 1
0.5 	 0.44568 	 0.715484 	 0.830509 	 1
0.6 	 0.504484 	 0.667748 	 0.794644 	 1
0.7 	 0.547471 	 0.638532 	 0.771722 	 1
0.8 	 0.57335 	 0.627322 	 0.763684 	 1
0.9 	 0.581928 	 0.633063 	 0.77014 	 1
1 	 0.574355 	 0.654504 	 0.788858 	 1
1.1 	 0.553289 	 0.689599 	 0.816376 	 1
1.2 	 0.522985 	 0.734734 	 0.848536 	 1
1.3 	 0.48924 	 0.784263 	 0.880897 	 1
1.4 	 0.458975 	 0.830674 	 0.90908 	 1
1.5 	 0.43903 	 0.865586 	 0.929145 	 1
1.6 	 0.434051 	 0.88162 	 0.938066 	 1
1.7 	 0.444524 	 0.874728 	 0.934273 	 1
1.8 	 0.466817 	 0.846042 	 0.918119 	 1
1.9 	 0.495242 	 0.802089 	 0.892116 	 1
2 	 0.524219 	 0.752859 	 0.860749 	 1
2.1 	 0.549346 	 0.708489 	 0.829816 	 1
2.2 	 0.567601 	 0.676394 	 0.805332 	 1
2.3 	 0.577214 	 0.660404 	 0.792256 	 1
2.4 	 0.577522 	 0.661828 	 0.793363 	 1
2.5 	 0.56889 	 0.680758 	 0.808598 	 1
2.6 	 0.552759 	 0.716003 	 0.835081 	 1
2.7 	 0.53176 	 0.763658 	 0.867764 	 1
2.8 	 0.50982 	 0.815995 	 0.900525 	 1
2.9 	 0.492002 	 0.862327 	 0.927429 	 1
3 	 0.483697 	 0.892006 	 0.943826 	 1
3.1 	 0.48899 	 0.897985 	 0.947075 	 1
3.2 	 0.508878 	 0.879017 	 0.936779 	 1
3.3 	 0.540695 	 0.839559 	 0.91459 	 1
3.4 	 0.579209 	 0.787806 	 0.883746 	 1
3.5 	 0.618341 	 0.733087 	 0.848508 	 1
3.6 	 0.652475 	 0.683666 	 0.813632 	 1
3.7 	 0.677142 	 0.64551 	 0.783881 	 1
3.8 	 0.689301 	 0.622073 	 0.763561 	 1
3.9 	 0.687433 	 0.614902 	 0.75602 	 1
4 	 0.671526 	 0.624612 	 0.763108 	 1
4.1 	 0.642997 	 0.651562 	 0.784701 	 1
4.2 	 0.604593 	 0.695517 	 0.818399 	 1
4.3 	 0.560293 	 0.754059 	 0.859597 	 1
4.4 	 0.515227 	 0.820604 	 0.902051 	 1
4.5 	 0.475509 	 0.883823 	 0.938915 	 1
4.6 	 0.447612 	 0.929963 	 0.964066 	 1
4.7 	 0.436824 	 0.947697 	 0.973388 	 1
4.8 	 0.445076 	 0.932942 	 0.96565 	 1
4.9 	 0.469901 	 0.890624 	 0.942732 	 1
5 	 0.505691 	 0.832271 	 0.90914 	 1
5.1 	 0.545951 	 0.77113 	 0.870973 	 1
5.2 	 0.584831 	 0.717781 	 0.834648 	 1
5.3 	 0.617723 	 0.678305 	 0.805699 	 1
5.4 	 0.641411 	 0.654959 	 0.787935 	 1
5.5 	 0.654099 	 0.647885 	 0.783068 	 1
5.6 	 0.655447 	 0.656389 	 0.79078 	 1
5.7 	 0.646594 	 0.679212 	 0.809076 	 1
5.8 	 0.630135 	 0.714057 	 0.834765 	 1
5.9 	 0.609963 	 0.756958 	 0.863927 	 1
6 	 0.590857 	 0.802003 	 0.892341 	 1
6.1 	 0.577671 	 0.841739 	 0.915892 	 1
6.2 	 0.574155 	 0.868404 	 0.931009 	 1
6.3 	 0.581821 	 0.875839 	 0.935145 	 1
6.4 	 0.599537 	 0.861548 	 0.927256 	 1
6.5 	 0.624156 	 0.828005 	 0.90818 	 1
6.6 	 0.651691 	 0.782314 	 0.880743 	 1
6.7 	 0.678361 	 0.734059 	 0.849482 	 1
6.8 	 0.701169 	 0.6923 	 0.819931 	 1
6.9 	 0.718087 	 0.663327 	 0.797589 	 1
7 	 0.728031 	 0.650251 	 0.786786 	 1
7.1 	 0.730775 	 0.654069 	 0.78975 	 1
7.2 	 0.726894 	 0.674706 	 0.806102 	 1
7.3 	 0.717754 	 0.71081 	 0.83293 	 1
7.4 	 0.705525 	 0.758483 	 0.865403 	 1
7.5 	 0.693128 	 0.810371 	 0.897775 	 1
7.6 	 0.684002 	 0.856511 	 0.924522 	 1
7.7 	 0.681555 	 0.887013 	 0.941333 	 1
7.8 	 0.688317 	 0.895227 	 0.945756 	 1
7.9 	 0.705097 	 0.879739 	 0.937397 	 1
8 	 0.730583 	 0.844346 	 0.917736 	 1
8.1 	 0.761648 	 0.796393 	 0.889703 	 1
8.2 	 0.79417 	 0.744486 	 0.857177 	 1
8.3 	 0.823955 	 0.696515 	 0.824513 	 1
8.4 	 0.847484 	 0.658436 	 0.796106 	 1
8.5 	 0.862375 	 0.633898 	 0.775962 	 1
8.6 	 0.867609 	 0.624597 	 0.767212 	 1
8.7 	 0.863541 	 0.631038 	 0.771594 	 1
8.8 	 0.851764 	 0.653162 	 0.78898 	 1
8.9 	 0.834844 	 0.690156 	 0.817135 	 1
9 	 0.81596 	 0.739266 	 0.851845 	 1
9.1 	 0.79848 	 0.794369 	 0.887534 	 1
9.2 	 0.785482 	 0.845824 	 0.918273 	 1
9.3 	 0.779299 	 0.882635 	 0.938971 	 1
9.4 	 0.781153 	 0.896309 	 0.946416 	 1
9.5 	 0.790985 	 0.884256 	 0.939892 	 1
9.6 	 0.807516 	 0.850671 	 0.921214 	 1
9.7 	 0.828518 	 0.804492 	 0.894207 	 1
9.8 	 0.851215 	 0.755862 	 0.863829 	 1
9.9 	 0.87272 	 0.71311 	 0.835161 	 1
10 	 0.890447 	 0.681444 	 0.812548 	 1
10.1 	 0.902452 	 0.663252 	 0.799009 	 1
10.2 	 0.907672 	 0.659121 	 0.795999 	 1
10.3 	 0.906063 	 0.668677 	 0.803434 	 1
10.4 	 0.898616 	 0.690852 	 0.819894 	 1
10.5 	 0.88725 	 0.723607 	 0.842885 	 1
10.6 	 0.874554 	 0.763439 	 0.869127 	 1
10.7 	 0.863389 	 0.805051 	 0.894862 	 1
10.8 	 0.856371 	 0.841587 	 0.91624 	 1
10.9 	 0.855354 	 0.865722 	 0.929794 	 1
11 	 0.861063 	 0.871555 	 0.933003 	 1
11.1 	 0.873007 	 0.856724 	 0.924837 	 1
11.2 	 0.889689 	 0.823712 	 0.906137 	 1
11.3 	 0.909006 	 0.779426 	 0.879679 	 1
11.4 	 0.928684 	 0.732995 	 0.849819 	 1
11.5 	 0.946634 	 0.692888 	 0.821738 	 1
11.6 	 0.961195 	 0.664896 	 0.80044 	 1
11.7 	 0.971282 	 0.651827 	 0.789757 	 1
11.8 	 0.976453 	 0.654446 	 0.791575 	 1
11.9 	 0.97694 	 0.672388 	 0.805489 	 1
12 	 0.973636 	 0.704115 	 0.828933 	 1
12.1 	 0.968046 	 0.746083 	 0.85775 	 1
12.2 	 0.962141 	 0.792201 	 0.887058 	 1
12.3 	 0.958122 	 0.834523 	 0.912203 	 1
12.4 	 0.958056 	 0.865186 	 0.929545 	 1
12.5 	 0.963445 	 0.878636 	 0.93695 	 1
12.6 	 0.974842 	 0.873019 	 0.933896 	 1
12.7 	 0.991662 	 0.850263 	 0.921297 	 1
12.8 	 1.01227 	 0.815106 	 0.901169 	 1
12.9 	 1.03435 	 0.773724 	 0.876283 	 1
13 	 1.05544 	 0.732447 	 0.849872 	 1
13.1 	 1.07338 	 0.696787 	 0.825376 	 1
13.2 	 1.08676 	 0.670831 	 0.806156 	 1
13.3 	 1.09504 	 0.657044 	 0.795091 	 1
13.4 	 1.09852 	 0.656486 	 0.794087 	 1
13.5 	 1.09826 	 0.669196 	 0.803575 	 1
13.6 	 1.09577 	 0.694269 	 0.822207 	 1
13.7 	 1.09273 	 0.729284 	 0.846913 	 1
13.8 	 1.09075 	 0.769482 	 0.873376 	 1
13.9 	 1.09113 	 0.807667 	 0.896852 	 1
14 	 1.09475 	 0.83562 	 0.913133 	 1
14.1 	 1.10198 	 0.846743 	 0.919413 	 1
14.2 	 1.11275 	 0.838582 	 0.91484 	 1
14.3 	 1.1265 	 0.813741 	 0.900629 	 1
14.4 	 1.1423 	 0.778656 	 0.879714 	 1
14.5 	 1.15891 	 0.741072 	 0.856042 	 1
14.6 	 1.17491 	 0.707667 	 0.83373 	 1
14.7 	 1.18891 	 0.682874 	 0.816293 	 1
14.8 	 1.19974 	 0.668935 	 0.806146 	 1
14.9 	 1.20664 	 0.666544 	 0.8044 	 1
15 	 1.20942 	 0.675429 	 0.810928 	 1
15.1 	 1.20855 	 0.694572 	 0.824573 	 1
15.2 	 1.20514 	 0.722139 	 0.843411 	 1
15.3 	 1.20072 	 0.75528 	 0.864976 	 1
15.4 	 1.197 	 0.78999 	 0.886466 	 1
15.5 	 1.19554 	 0.821239 	 0.904959 	 1
15.6 	 1.19744 	 0.843552 	 0.917707 	 1
15.7 	 1.20312 	 0.852157 	 0.922525 	 1
15.8 	 1.21229 	 0.844456 	 0.918237 	 1
15.9 	 1.22406 	 0.821221 	 0.905045 	 1
16 	 1.23719 	 0.78678 	 0.884692 	 1
16.1 	 1.25036 	 0.747892 	 0.860314 	 1
16.2 	 1.26238 	 0.711733 	 0.83595 	 1
16.3 	 1.27237 	 0.684014 	 0.815811 	 1
16.4 	 1.27983 	 0.668098 	 0.803426 	 1
16.5 	 1.2846 	 0.665249 	 0.800905 	 1
16.6 	 1.2869 	 0.675315 	 0.808501 	 1
16.7 	 1.28722 	 0.697021 	 0.824605 	 1
16.8 	 1.28634 	 0.727685 	 0.846166 	 1
16.9 	 1.28521 	 0.762924 	 0.869402 	 1
17 	 1.28487 	 0.797069 	 0.890594 	 1
17.1 	 1.28633 	 0.824361 	 0.906741 	 1
17.2 	 1.29039 	 0.840394 	 0.915942 	 1
17.3 	 1.29745 	 0.843072 	 0.917478 	 1
17.4 	 1.30742 	 0.832761 	 0.911665 	 1
17.5 	 1.31969 	 0.811838 	 0.899626 	 1
17.6 	 1.33325 	 0.783993 	 0.883077 	 1
17.7 	 1.34693 	 0.753552 	 0.864185 	 1
17.8 	 1.35962 	 0.724857 	 0.845446 	 1
17.9 	 1.3705 	 0.701708 	 0.829495 	 1
18 	 1.37916 	 0.686937 	 0.818786 	 1
18.1 	 1.38562 	 0.682246 	 0.815166 	 1
18.2 	 1.39024 	 0.688255 	 0.819443 	 1
18.3 	 1.39363 	 0.704533 	 0.831091 	 1
18.4 	 1.39649 	 0.729354 	 0.848218 	 1
18.5 	 1.39953 	 0.75931 	 0.867839 	 1
18.6 	 1.40341 	 0.789277 	 0.886428 	 1
18.7 	 1.40865 	 0.813231 	 0.900622 	 1
18.8 	 1.41567 	 0.82589 	 0.907905 	 1
18.9 	 1.42469 	 0.824464 	 0.907104 	 1
19 	 1.4357 	 0.809573 	 0.898565 	 1
19.1 	 1.4484 	 0.784847 	 0.883985 	 1
19.2 	 1.46221 	 0.755504 	 0.865965 	 1
19.3 	 1.47632 	 0.726734 	 0.847449 	 1
19.4 	 1.4898 	 0.702602 	 0.831176 	 1
19.5 	 1.50177 	 0.685698 	 0.819307 	 1
19.6 	 1.51157 	 0.677341 	 0.81323 	 1
19.7 	 1.51892 	 0.677945 	 0.813547 	 1
19.8 	 1.52393 	 0.687301 	 0.820122 	 1
19.9 	 1.52716 	 0.704645 	 0.832152 	 1
20 	 1.52943 	 0.728511 	 0.848202 	 1
20.1 	 1.5317 	 0.756477 	 0.86627 	 1
20.2 	 1.53484 	 0.784985 	 0.883912 	 1
20.3 	 1.53949 	 0.80952 	 0.89851 	 1
20.4 	 1.54592 	 0.825346 	 0.907657 	 1
20.5 	 1.55405 	 0.828757 	 0.909612 	 1
20.6 	 1.56349 	 0.818409 	 0.903725 	 1
20.7 	 1.57369 	 0.796062 	 0.890694 	 1
20.8 	 1.58407 	 0.766219 	 0.872556 	 1
20.9 	 1.5941 	 0.734741 	 0.852362 	 1
21 	 1.60335 	 0.707116 	 0.833584 	 1
21.1 	 1.61149 	 0.68726 	 0.819401 	 1
21.2 	 1.61831 	 0.677212 	 0.812034 	 1
21.3 	 1.62365 	 0.677472 	 0.812346 	 1
21.4 	 1.62748 	 0.687385 	 0.819773 	 1
21.5 	 1.6299 	 0.705299 	 0.832609 	 1
21.6 	 1.6312 	 0.728609 	 0.848499 	 1
21.7 	 1.63188 	 0.754004 	 0.86497 	 1
21.8 	 1.63256 	 0.777952 	 0.879838 	 1
21.9 	 1.63392 	 0.797249 	 0.891414 	 1
22 	 1.63656 	 0.809407 	 0.898542 	 1
22.1 	 1.64082 	 0.812866 	 0.900552 	 1
22.2 	 1.64676 	 0.807144 	 0.897241 	 1
22.3 	 1.65413 	 0.792989 	 0.888928 	 1
22.4 	 1.66248 	 0.772469 	 0.87655 	 1
22.5 	 1.67124 	 0.748801 	 0.861723 	 1
22.6 	 1.6799 	 0.725822 	 0.846654 	 1
22.7 	 1.68807 	 0.707225 	 0.833866 	 1
22.8 	 1.69552 	 0.695895 	 0.825731 	 1
22.9 	 1.7022 	 0.693594 	 0.823953 	 1
23 	 1.70817 	 0.700913 	 0.829121 	 1
23.1 	 1.71361 	 0.717239 	 0.840501 	 1
23.2 	 1.71876 	 0.740554 	 0.856133 	 1
23.3 	 1.72389 	 0.767306 	 0.873229 	 1
23.4 	 1.72935 	 0.792771 	 0.88877 	 1
23.5 	 1.73551 	 0.81208 	 0.900135 	 1
23.6 	 1.74273 	 0.821564 	 0.905596 	 1
23.7 	 1.75126 	 0.819752 	 0.904553 	 1
23.8 	 1.76123 	 0.807547 	 0.897483 	 1
23.9 	 1.77249 	 0.787618 	 0.885682 	 1
24 	 1.78467 	 0.763466 	 0.87092 	 1
24.1 	 1.79718 	 0.738608 	 0.855148 	 1
24.2 	 1.80931 	 0.716108 	 0.840296 	 1
24.3 	 1.8204 	 0.698398 	 0.828151 	 1
24.4 	 1.82994 	 0.687274 	 0.820262 	 1
24.5 	 1.83765 	 0.683926 	 0.817794 	 1
24.6 	 1.84351 	 0.688949 	 0.821333 	 1
24.7 	 1.84776 	 0.702254 	 0.830684 	 1
24.8 	 1.85083 	 0.722819 	 0.844735 	 1
24.9 	 1.85322 	 0.748365 	 0.861486 	 1
25 	 1.85545 	 0.775171 	 0.878282 	 1
25.1 	 1.85797 	 0.798408 	 0.892252 	 1
25.2 	 1.86112 	 0.813179 	 0.90087 	 1
25.3 	 1.8651 	 0.816036 	 0.902514 	 1
25.4 	 1.86999 	 0.806267 	 0.896859 	 1
25.5 	 1.87578 	 0.786217 	 0.884983 	 1
25.6 	 1.88232 	 0.760408 	 0.869128 	 1
25.7 	 1.88936 	 0.733949 	 0.852167 	 1
25.8 	 1.89651 	 0.711123 	 0.836955 	 1
25.9 	 1.90329 	 0.694714 	 0.825746 	 1
26 	 1.9092 	 0.686052 	 0.819857 	 1
26.1 	 1.91381 	 0.685382 	 0.819635 	 1
26.2 	 1.9169 	 0.692219 	 0.82464 	 1
26.3 	 1.91853 	 0.705567 	 0.833926 	 1
26.4 	 1.91907 	 0.724014 	 0.846263 	 1
26.5 	 1.91912 	 0.745726 	 0.860249 	 1
26.6 	 1.91942 	 0.76835 	 0.874314 	 1
26.7 	 1.92067 	 0.788948 	 0.886725 	 1
26.8 	 1.9234 	 0.804153 	 0.895662 	 1
26.9 	 1.92791 	 0.810723 	 0.89947 	 1
27 	 1.93419 	 0.806489 	 0.89702 	 1
27.1 	 1.94201 	 0.791352 	 0.88812 	 1
27.2 	 1.95098 	 0.767743 	 0.873783 	 1
27.3 	 1.96066 	 0.740147 	 0.856232 	 1
27.4 	 1.97058 	 0.713825 	 0.838565 	 1
27.5 	 1.98034 	 0.693407 	 0.824136 	 1
27.6 	 1.98961 	 0.682044 	 0.815807 	 1
27.7 	 1.99811 	 0.681295 	 0.815273 	 1
27.8 	 2.00566 	 0.691335 	 0.822675 	 1
27.9 	 2.01218 	 0.710987 	 0.836598 	 1
28 	 2.01777 	 0.737561 	 0.854461 	 1
28.1 	 2.02268 	 0.766925 	 0.873144 	 1
28.2 	 2.02734 	 0.794162 	 0.889657 	 1
28.3 	 2.03226 	 0.814679 	 0.901654 	 1
28.4 	 2.03794 	 0.82528 	 0.907715 	 1
28.5 	 2.04473 	 0.824732 	 0.90738 	 1
28.6 	 2.05274 	 0.813725 	 0.901025 	 1
28.7 	 2.06175 	 0.79442 	 0.889663 	 1
28.8 	 2.07131 	 0.769872 	 0.874769 	 1
28.9 	 2.08073 	 0.743509 	 0.858151 	 1
29 	 2.08932 	 0.718727 	 0.84185 	 1
29.1 	 2.09642 	 0.698568 	 0.828018 	 1
29.2 	 2.10159 	 0.685485 	 0.81871 	 1
29.3 	 2.1046 	 0.681198 	 0.815577 	 1
29.4 	 2.10549 	 0.686626 	 0.819495 	 1
29.5 	 2.10449 	 0.701756 	 0.83025 	 1
29.6 	 2.10199 	 0.725337 	 0.84639 	 1
29.7 	 2.09848 	 0.754471 	 0.86536 	 1
29.8 	 2.09447 	 0.78451 	 0.883932 	 1
29.9 	 2.09048 	 0.809726 	 0.898847 	 1
30 	 2.08702 	 0.824802 	 0.907501 	 1
30.1 	 2.08451 	 0.826547 	 0.908485 	 1
30.2 	 2.08328 	 0.814912 	 0.901813 	 1
30.3 	 2.08346 	 0.792782 	 0.888815 	 1
30.4 	 2.08497 	 0.76477 	 0.871753 	 1
30.5 	 2.08748 	 0.735769 	 0.853322 	 1
30.6 	 2.09049 	 0.709901 	 0.83618 	 1
30.7 	 2.0934 	 0.690127 	 0.822614 	 1
30.8 	 2.09567 	 0.678315 	 0.814341 	 1
30.9 	 2.09694 	 0.675493 	 0.81242 	 1
31 	 2.09713 	 0.682036 	 0.817186 	 1
31.1 	 2.0965 	 0.697655 	 0.828179 	 1
31.2 	 2.09555 	 0.721152 	 0.844091 	 1
31.3 	 2.09497 	 0.750036 	 0.862781 	 1
31.4 	 2.09545 	 0.780275 	 0.881451 	 1
31.5 	 2.09761 	 0.806541 	 0.897009 	 1
31.6 	 2.10187 	 0.823227 	 0.906604 	 1
31.7 	 2.10842 	 0.82609 	 0.908224 	 1
31.8 	 2.1172 	 0.813847 	 0.9012 	 1
31.9 	 2.12794 	 0.788883 	 0.886477 	 1
32 	 2.14019 	 0.756561 	 0.866528 	 1
32.1 	 2.15337 	 0.723427 	 0.844907 	 1
32.2 	 2.16682 	 0.695298 	 0.825514 	 1
32.3 	 2.17982 	 0.67613 	 0.81177 	 1
32.4 	 2.1917 	 0.667932 	 0.805924 	 1
32.5 	 2.2019 	 0.671213 	 0.808673 	 1
32.6 	 2.21004 	 0.685306 	 0.819182 	 1
32.7 	 2.21606 	 0.708379 	 0.835416 	 1
32.8 	 2.22018 	 0.737388 	 0.854678 	 1
32.9 	 2.22288 	 0.768312 	 0.874129 	 1
33 	 2.22485 	 0.796719 	 0.891199 	 1
33.1 	 2.22677 	 0.818451 	 0.90382 	 1
33.2 	 2.22923 	 0.830245 	 0.910522 	 1
33.3 	 2.23254 	 0.830189 	 0.910475 	 1
33.4 	 2.23667 	 0.818072 	 0.903539 	 1
33.5 	 2.24129 	 0.795563 	 0.89036 	 1
33.6 	 2.24583 	 0.766108 	 0.872453 	 1
33.7 	 2.24959 	 0.734384 	 0.852184 	 1
33.8 	 2.25193 	 0.705375 	 0.832574 	 1
33.9 	 2.25231 	 0.683394 	 0.816875 	 1
34 	 2.25043 	 0.671476 	 0.807978 	 1
34.1 	 2.2462 	 0.671291 	 0.807776 	 1
34.2 	 2.23975 	 0.683288 	 0.816657 	 1
34.3 	 2.23141 	 0.706597 	 0.8333 	 1
34.4 	 2.22163 	 0.738553 	 0.854864 	 1
34.5 	 2.21103 	 0.774328 	 0.877545 	 1
34.6 	 2.20029 	 0.807395 	 0.897366 	 1
34.7 	 2.19018 	 0.831066 	 0.910982 	 1
34.8 	 2.18143 	 0.840518 	 0.916291 	 1
34.9 	 2.17464 	 0.834242 	 0.912733 	 1
35 	 2.17013 	 0.814224 	 0.901226 	 1
