time = tau * tau_parallel
rms: rms distance of hole to its origin
IPR: inverse participation ratio, IPR(tau) = sum_i (n_h(i,tau))^2, with hole density n_h(i,tau) at site i at time tau.
return prob: probability of the hole to return to its origin, n_h(0,tau).
leg imbalance: difference between the occupation in the two legs of the ladder (see Eq. (15) in the manuscript).


time, rms, IPR, return prob, leg imbalance
0 	 0 	 1 	 1 	 1
0.1 	 0.100156 	 0.980285 	 0.990043 	 1
0.2 	 0.197681 	 0.92693 	 0.962038 	 1
0.3 	 0.289849 	 0.854427 	 0.921122 	 1
0.4 	 0.373795 	 0.779397 	 0.874509 	 1
0.5 	 0.446566 	 0.714661 	 0.829909 	 1
0.6 	 0.505268 	 0.667006 	 0.794049 	 1
0.7 	 0.547307 	 0.638462 	 0.771636 	 1
0.8 	 0.570683 	 0.628874 	 0.764906 	 1
0.9 	 0.574285 	 0.637687 	 0.773715 	 1
1 	 0.558158 	 0.664226 	 0.795976 	 1
1.1 	 0.523736 	 0.70695 	 0.828219 	 1
1.2 	 0.474069 	 0.762431 	 0.866116 	 1
1.3 	 0.414156 	 0.824672 	 0.904894 	 1
1.4 	 0.351602 	 0.885098 	 0.939682 	 1
1.5 	 0.297657 	 0.933459 	 0.965875 	 1
1.6 	 0.26697 	 0.959791 	 0.979594 	 1
1.7 	 0.270288 	 0.957211 	 0.978262 	 1
1.8 	 0.303401 	 0.924692 	 0.96122 	 1
1.9 	 0.351834 	 0.868408 	 0.930192 	 1
2 	 0.402849 	 0.80039 	 0.889422 	 1
2.1 	 0.44856 	 0.734551 	 0.845258 	 1
2.2 	 0.484514 	 0.682004 	 0.805172 	 1
2.3 	 0.508263 	 0.64846 	 0.776324 	 1
2.4 	 0.518531 	 0.635159 	 0.764032 	 1
2.5 	 0.514806 	 0.641864 	 0.770557 	 1
2.6 	 0.49721 	 0.668759 	 0.794588 	 1
2.7 	 0.466611 	 0.715306 	 0.831572 	 1
2.8 	 0.424989 	 0.777302 	 0.874795 	 1
2.9 	 0.376136 	 0.845231 	 0.916857 	 1
3 	 0.326836 	 0.905922 	 0.95113 	 1
3.1 	 0.288287 	 0.946718 	 0.972823 	 1
3.2 	 0.274876 	 0.959605 	 0.979491 	 1
3.3 	 0.294874 	 0.943223 	 0.971009 	 1
3.4 	 0.341766 	 0.902329 	 0.949197 	 1
3.5 	 0.401414 	 0.845646 	 0.917319 	 1
3.6 	 0.46151 	 0.783307 	 0.879598 	 1
3.7 	 0.513517 	 0.72469 	 0.84081 	 1
3.8 	 0.55183 	 0.677025 	 0.805923 	 1
3.9 	 0.572997 	 0.644844 	 0.779693 	 1
4 	 0.575297 	 0.630319 	 0.766158 	 1
4.1 	 0.558455 	 0.634247 	 0.768027 	 1
4.2 	 0.52341 	 0.657105 	 0.786043 	 1
4.3 	 0.47207 	 0.699187 	 0.818506 	 1
4.4 	 0.407111 	 0.759176 	 0.861149 	 1
4.5 	 0.33193 	 0.83158 	 0.907549 	 1
4.6 	 0.25113 	 0.905023 	 0.95012 	 1
4.7 	 0.17311 	 0.963676 	 0.981523 	 1
4.8 	 0.121253 	 0.992401 	 0.99619 	 1
4.9 	 0.138328 	 0.983215 	 0.991546 	 1
5 	 0.207414 	 0.939007 	 0.968567 	 1
5.1 	 0.289663 	 0.872018 	 0.931515 	 1
5.2 	 0.370313 	 0.798182 	 0.88693 	 1
5.3 	 0.442854 	 0.731124 	 0.842198 	 1
5.4 	 0.502993 	 0.679063 	 0.804113 	 1
5.5 	 0.547428 	 0.64522 	 0.777797 	 1
5.6 	 0.573702 	 0.630035 	 0.76617 	 1
5.7 	 0.580336 	 0.633145 	 0.769926 	 1
5.8 	 0.56702 	 0.654127 	 0.787845 	 1
5.9 	 0.534791 	 0.692103 	 0.817211 	 1
6 	 0.486206 	 0.744737 	 0.854192 	 1
6.1 	 0.425582 	 0.807193 	 0.894159 	 1
6.2 	 0.359523 	 0.871554 	 0.932001 	 1
6.3 	 0.29807 	 0.927242 	 0.962554 	 1
6.4 	 0.255904 	 0.96288 	 0.981194 	 1
6.5 	 0.248123 	 0.969473 	 0.984569 	 1
6.6 	 0.276007 	 0.943917 	 0.971355 	 1
6.7 	 0.325106 	 0.891035 	 0.942806 	 1
6.8 	 0.380347 	 0.82259 	 0.902891 	 1
6.9 	 0.432275 	 0.753201 	 0.857869 	 1
7 	 0.475585 	 0.69523 	 0.815277 	 1
7.1 	 0.507257 	 0.655599 	 0.782507 	 1
7.2 	 0.52554 	 0.636213 	 0.765299 	 1
7.3 	 0.529498 	 0.636838 	 0.766527 	 1
7.4 	 0.51888 	 0.657419 	 0.785624 	 1
7.5 	 0.494233 	 0.697667 	 0.818794 	 1
7.6 	 0.457219 	 0.754524 	 0.859947 	 1
7.7 	 0.41118 	 0.820204 	 0.902055 	 1
7.8 	 0.362041 	 0.882972 	 0.938533 	 1
7.9 	 0.319457 	 0.930457 	 0.964303 	 1
8 	 0.296553 	 0.953486 	 0.976338 	 1
8.1 	 0.303909 	 0.948428 	 0.973723 	 1
8.2 	 0.340079 	 0.917434 	 0.957384 	 1
8.3 	 0.393205 	 0.867137 	 0.929714 	 1
8.4 	 0.45046 	 0.806715 	 0.894238 	 1
8.5 	 0.502308 	 0.74591 	 0.855363 	 1
8.6 	 0.542421 	 0.693272 	 0.818105 	 1
8.7 	 0.566901 	 0.654896 	 0.787691 	 1
8.8 	 0.573724 	 0.634058 	 0.768938 	 1
8.9 	 0.562379 	 0.631947 	 0.765454 	 1
9 	 0.533588 	 0.649016 	 0.778807 	 1
9.1 	 0.489059 	 0.685707 	 0.807915 	 1
9.2 	 0.431311 	 0.741384 	 0.848877 	 1
9.3 	 0.363716 	 0.811712 	 0.895397 	 1
9.4 	 0.291078 	 0.886437 	 0.93981 	 1
9.5 	 0.221766 	 0.950171 	 0.974514 	 1
9.6 	 0.173468 	 0.987051 	 0.993497 	 1
9.7 	 0.173609 	 0.987211 	 0.993578 	 1
9.8 	 0.223457 	 0.951136 	 0.975024 	 1
9.9 	 0.296217 	 0.889139 	 0.941398 	 1
10 	 0.37338 	 0.816455 	 0.898676 	 1
10.1 	 0.445588 	 0.747271 	 0.853926 	 1
10.2 	 0.507127 	 0.691021 	 0.813935 	 1
10.3 	 0.553917 	 0.652045 	 0.784109 	 1
10.4 	 0.583028 	 0.631393 	 0.76788 	 1
10.5 	 0.592659 	 0.628864 	 0.766609 	 1
10.6 	 0.58225 	 0.644107 	 0.77981 	 1
10.7 	 0.552613 	 0.676612 	 0.805497 	 1
10.8 	 0.506041 	 0.724926 	 0.840462 	 1
10.9 	 0.44647 	 0.785499 	 0.880469 	 1
11 	 0.379847 	 0.851629 	 0.920471 	 1
11.1 	 0.315023 	 0.91322 	 0.954982 	 1
11.2 	 0.265131 	 0.958109 	 0.978732 	 1
11.3 	 0.245949 	 0.975284 	 0.987536 	 1
11.4 	 0.263974 	 0.959053 	 0.97922 	 1
11.5 	 0.308215 	 0.912087 	 0.954323 	 1
11.6 	 0.362848 	 0.845204 	 0.916329 	 1
11.7 	 0.417019 	 0.77347 	 0.87127 	 1
11.8 	 0.464528 	 0.710622 	 0.826721 	 1
11.9 	 0.501782 	 0.665097 	 0.790365 	 1
12 	 0.526564 	 0.639754 	 0.768462 	 1
12.1 	 0.537485 	 0.634553 	 0.764581 	 1
12.2 	 0.533836 	 0.64929 	 0.778934 	 1
12.3 	 0.515684 	 0.683873 	 0.808461 	 1
12.4 	 0.484178 	 0.736182 	 0.847632 	 1
12.5 	 0.442029 	 0.799843 	 0.889704 	 1
12.6 	 0.394253 	 0.864277 	 0.928069 	 1
12.7 	 0.349134 	 0.917339 	 0.957341 	 1
12.8 	 0.318533 	 0.948933 	 0.973981 	 1
12.9 	 0.314332 	 0.953641 	 0.976421 	 1
13 	 0.339764 	 0.931504 	 0.964875 	 1
13.1 	 0.386329 	 0.887317 	 0.941034 	 1
13.2 	 0.441328 	 0.829198 	 0.907819 	 1
13.3 	 0.494188 	 0.766859 	 0.869232 	 1
13.4 	 0.537637 	 0.709757 	 0.830179 	 1
13.5 	 0.567091 	 0.665343 	 0.796115 	 1
13.6 	 0.580031 	 0.638042 	 0.772391 	 1
13.7 	 0.575562 	 0.629562 	 0.763353 	 1
13.8 	 0.554105 	 0.640341 	 0.771379 	 1
13.9 	 0.517163 	 0.670787 	 0.796133 	 1
14 	 0.467184 	 0.720793 	 0.834309 	 1
14.1 	 0.407637 	 0.787287 	 0.880001 	 1
14.2 	 0.343532 	 0.861627 	 0.925685 	 1
14.3 	 0.282843 	 0.929544 	 0.963621 	 1
14.4 	 0.238997 	 0.974946 	 0.98736 	 1
14.5 	 0.229537 	 0.98609 	 0.993014 	 1
14.6 	 0.260652 	 0.960563 	 0.97997 	 1
14.7 	 0.318932 	 0.906034 	 0.950899 	 1
14.8 	 0.387719 	 0.836463 	 0.911067 	 1
14.9 	 0.455757 	 0.76638 	 0.867154 	 1
15 	 0.515844 	 0.706545 	 0.82593 	 1
15.1 	 0.563034 	 0.662692 	 0.79312 	 1
15.2 	 0.593888 	 0.636755 	 0.772712 	 1
15.3 	 0.606278 	 0.628869 	 0.766734 	 1
15.4 	 0.5994 	 0.638761 	 0.775392 	 1
15.5 	 0.573846 	 0.666116 	 0.797327 	 1
15.6 	 0.53168 	 0.710024 	 0.829845 	 1
15.7 	 0.47655 	 0.767843 	 0.869052 	 1
15.8 	 0.413949 	 0.833917 	 0.91002 	 1
15.9 	 0.351804 	 0.898861 	 0.947131 	 1
16 	 0.301307 	 0.950391 	 0.974729 	 1
16.1 	 0.275903 	 0.976291 	 0.988053 	 1
16.2 	 0.283714 	 0.968834 	 0.984253 	 1
16.3 	 0.319264 	 0.928543 	 0.963194 	 1
16.4 	 0.369351 	 0.864781 	 0.927783 	 1
16.5 	 0.422711 	 0.792326 	 0.883628 	 1
16.6 	 0.472108 	 0.725729 	 0.83808 	 1
16.7 	 0.513055 	 0.674783 	 0.798845 	 1
16.8 	 0.542643 	 0.643487 	 0.772497 	 1
16.9 	 0.558933 	 0.632243 	 0.763221 	 1
17 	 0.560769 	 0.640735 	 0.772085 	 1
17.1 	 0.547845 	 0.668909 	 0.796977 	 1
17.2 	 0.520962 	 0.715496 	 0.833205 	 1
17.3 	 0.48242 	 0.775766 	 0.874557 	 1
17.4 	 0.436595 	 0.840773 	 0.91454 	 1
17.5 	 0.390645 	 0.899034 	 0.947467 	 1
17.6 	 0.354855 	 0.939662 	 0.969166 	 1
17.7 	 0.340601 	 0.955252 	 0.977261 	 1
17.8 	 0.354002 	 0.943396 	 0.971121 	 1
17.9 	 0.390768 	 0.906776 	 0.951685 	 1
18 	 0.439969 	 0.852288 	 0.921304 	 1
18.1 	 0.490748 	 0.789544 	 0.883642 	 1
18.2 	 0.535055 	 0.728866 	 0.843534 	 1
18.3 	 0.567639 	 0.679066 	 0.806637 	 1
18.4 	 0.58547 	 0.645812 	 0.778744 	 1
18.5 	 0.587248 	 0.63147 	 0.764815 	 1
18.6 	 0.573042 	 0.636532 	 0.767917 	 1
18.7 	 0.544037 	 0.661277 	 0.788374 	 1
18.8 	 0.502395 	 0.70584 	 0.823424 	 1
18.9 	 0.451301 	 0.768048 	 0.867555 	 1
19 	 0.395338 	 0.840624 	 0.913456 	 1
19.1 	 0.341378 	 0.910529 	 0.953404 	 1
19.2 	 0.299763 	 0.962029 	 0.980748 	 1
19.3 	 0.283381 	 0.98238 	 0.991141 	 1
19.4 	 0.300022 	 0.966944 	 0.983278 	 1
19.5 	 0.344576 	 0.92075 	 0.95898 	 1
19.6 	 0.404423 	 0.855824 	 0.922655 	 1
19.7 	 0.467974 	 0.786182 	 0.880315 	 1
19.8 	 0.52681 	 0.723377 	 0.838411 	 1
19.9 	 0.574992 	 0.6745 	 0.802777 	 1
20 	 0.608378 	 0.642641 	 0.7779 	 1
20.1 	 0.624339 	 0.628559 	 0.766575 	 1
20.2 	 0.621685 	 0.632229 	 0.769878 	 1
20.3 	 0.600684 	 0.653573 	 0.787278 	 1
20.4 	 0.563089 	 0.692233 	 0.816745 	 1
20.5 	 0.512201 	 0.746524 	 0.854813 	 1
20.6 	 0.453032 	 0.81195 	 0.896694 	 1
20.7 	 0.392687 	 0.880013 	 0.93661 	 1
20.8 	 0.340897 	 0.938465 	 0.968466 	 1
20.9 	 0.309471 	 0.973916 	 0.986847 	 1
21 	 0.307498 	 0.976466 	 0.988145 	 1
21.1 	 0.333927 	 0.944217 	 0.971487 	 1
21.2 	 0.37861 	 0.88481 	 0.939176 	 1
21.3 	 0.43035 	 0.812606 	 0.896424 	 1
21.4 	 0.480918 	 0.742973 	 0.850427 	 1
21.5 	 0.524869 	 0.687129 	 0.80898 	 1
21.6 	 0.558562 	 0.650332 	 0.778962 	 1
21.7 	 0.57952 	 0.633586 	 0.76506 	 1
21.8 	 0.586187 	 0.636561 	 0.768993 	 1
21.9 	 0.577947 	 0.659085 	 0.789397 	 1
22 	 0.555326 	 0.700288 	 0.82231 	 1
22.1 	 0.52031 	 0.756599 	 0.862105 	 1
22.2 	 0.476782 	 0.820598 	 0.902587 	 1
22.3 	 0.431041 	 0.881853 	 0.938004 	 1
22.4 	 0.392066 	 0.92937 	 0.963765 	 1
22.5 	 0.370298 	 0.954371 	 0.976819 	 1
22.6 	 0.373193 	 0.952302 	 0.975753 	 1
22.7 	 0.399951 	 0.923665 	 0.960741 	 1
22.8 	 0.442206 	 0.873797 	 0.933493 	 1
22.9 	 0.48962 	 0.811733 	 0.897215 	 1
23 	 0.533692 	 0.748242 	 0.856514 	 1
23.1 	 0.568563 	 0.693303 	 0.817079 	 1
23.2 	 0.590663 	 0.653899 	 0.785027 	 1
23.3 	 0.598218 	 0.63328 	 0.765904 	 1
23.4 	 0.590866 	 0.632161 	 0.763552 	 1
23.5 	 0.569373 	 0.650722 	 0.779136 	 1
23.6 	 0.535481 	 0.689331 	 0.810651 	 1
23.7 	 0.491917 	 0.74683 	 0.853126 	 1
23.8 	 0.442664 	 0.81753 	 0.899496 	 1
23.9 	 0.393563 	 0.889772 	 0.941971 	 1
24 	 0.353032 	 0.948129 	 0.973539 	 1
24.1 	 0.331584 	 0.97868 	 0.989268 	 1
24.2 	 0.337491 	 0.974411 	 0.987101 	 1
24.3 	 0.370423 	 0.937633 	 0.968027 	 1
24.4 	 0.421722 	 0.878337 	 0.93566 	 1
24.5 	 0.480577 	 0.809861 	 0.89538 	 1
24.6 	 0.537882 	 0.744437 	 0.853312 	 1
24.7 	 0.586833 	 0.69056 	 0.81534 	 1
24.8 	 0.6226 	 0.65267 	 0.786374 	 1
24.9 	 0.642046 	 0.632345 	 0.769899 	 1
25 	 0.643609 	 0.629852 	 0.767798 	 1
25.1 	 0.627268 	 0.645199 	 0.78031 	 1
25.2 	 0.59452 	 0.67827 	 0.80604 	 1
25.3 	 0.548399 	 0.728018 	 0.841962 	 1
25.4 	 0.493551 	 0.790958 	 0.883524 	 1
25.5 	 0.436456 	 0.859676 	 0.924964 	 1
25.6 	 0.385702 	 0.922541 	 0.959969 	 1
25.7 	 0.351506 	 0.965766 	 0.982679 	 1
25.8 	 0.342566 	 0.977837 	 0.988842 	 1
25.9 	 0.360506 	 0.95447 	 0.97684 	 1
26 	 0.398597 	 0.901104 	 0.948247 	 1
26.1 	 0.446958 	 0.830986 	 0.907696 	 1
26.2 	 0.497075 	 0.759758 	 0.862046 	 1
26.3 	 0.542781 	 0.699844 	 0.81903 	 1
26.4 	 0.579747 	 0.657834 	 0.785748 	 1
26.5 	 0.604942 	 0.635549 	 0.767351 	 1
26.6 	 0.616371 	 0.632837 	 0.766234 	 1
26.7 	 0.613063 	 0.649474 	 0.781833 	 1
26.8 	 0.595223 	 0.684931 	 0.811 	 1
26.9 	 0.564495 	 0.736703 	 0.848782 	 1
27 	 0.524294 	 0.798905 	 0.889373 	 1
27.1 	 0.480171 	 0.862352 	 0.927029 	 1
27.2 	 0.43996 	 0.916242 	 0.956782 	 1
27.3 	 0.412964 	 0.950657 	 0.974909 	 1
27.4 	 0.406938 	 0.958924 	 0.979173 	 1
27.5 	 0.423676 	 0.93921 	 0.968949 	 1
27.6 	 0.457768 	 0.895058 	 0.945288 	 1
27.7 	 0.500213 	 0.834719 	 0.910946 	 1
27.8 	 0.542465 	 0.769247 	 0.870303 	 1
27.9 	 0.578124 	 0.709711 	 0.829047 	 1
28 	 0.603032 	 0.664464 	 0.79352 	 1
28.1 	 0.614894 	 0.637822 	 0.769736 	 1
28.2 	 0.612887 	 0.63089 	 0.7622 	 1
28.3 	 0.597364 	 0.643712 	 0.77285 	 1
28.4 	 0.569679 	 0.676606 	 0.800424 	 1
28.5 	 0.532172 	 0.729029 	 0.840526 	 1
28.6 	 0.488356 	 0.796625 	 0.886413 	 1
28.7 	 0.443339 	 0.869179 	 0.930328 	 1
28.8 	 0.404287 	 0.93199 	 0.965036 	 1
28.9 	 0.38011 	 0.97059 	 0.985153 	 1
29 	 0.378723 	 0.976183 	 0.988002 	 1
29.1 	 0.402264 	 0.948682 	 0.973844 	 1
29.2 	 0.445391 	 0.895948 	 0.945544 	 1
29.3 	 0.498875 	 0.830193 	 0.907825 	 1
29.4 	 0.553653 	 0.763751 	 0.866369 	 1
29.5 	 0.602431 	 0.706125 	 0.826937 	 1
29.6 	 0.639858 	 0.66301 	 0.794679 	 1
29.7 	 0.662364 	 0.636937 	 0.773641 	 1
29.8 	 0.668036 	 0.62863 	 0.766461 	 1
29.9 	 0.656545 	 0.638245 	 0.774175 	 1
30 	 0.629098 	 0.665874 	 0.796083 	 1
30.1 	 0.588402 	 0.711041 	 0.829685 	 1
30.2 	 0.538672 	 0.771266 	 0.870742 	 1
30.3 	 0.485714 	 0.840322 	 0.913583 	 1
30.4 	 0.437 	 0.907409 	 0.951749 	 1
30.5 	 0.401248 	 0.95858 	 0.978971 	 1
30.6 	 0.386373 	 0.980825 	 0.990357 	 1
30.7 	 0.395659 	 0.967348 	 0.98349 	 1
30.8 	 0.42562 	 0.921043 	 0.959125 	 1
30.9 	 0.468501 	 0.853677 	 0.921216 	 1
31 	 0.516197 	 0.780979 	 0.8762 	 1
31.1 	 0.562103 	 0.716659 	 0.831722 	 1
31.2 	 0.60126 	 0.668872 	 0.795113 	 1
31.3 	 0.630055 	 0.640485 	 0.772026 	 1
31.4 	 0.646009 	 0.631641 	 0.765533 	 1
31.5 	 0.647754 	 0.642019 	 0.775847 	 1
31.6 	 0.635145 	 0.671206 	 0.800591 	 1
31.7 	 0.609468 	 0.71746 	 0.835476 	 1
31.8 	 0.573694 	 0.776224 	 0.875133 	 1
31.9 	 0.53272 	 0.839657 	 0.913935 	 1
32 	 0.493428 	 0.897582 	 0.946685 	 1
32.1 	 0.464034 	 0.939547 	 0.96913 	 1
32.2 	 0.45196 	 0.957286 	 0.978336 	 1
32.3 	 0.460451 	 0.946847 	 0.972938 	 1
32.4 	 0.486673 	 0.909802 	 0.953318 	 1
32.5 	 0.523521 	 0.853147 	 0.921703 	 1
32.6 	 0.563054 	 0.787668 	 0.882117 	 1
32.7 	 0.598678 	 0.72509 	 0.840092 	 1
32.8 	 0.625763 	 0.674964 	 0.80204 	 1
32.9 	 0.641505 	 0.642771 	 0.774288 	 1
33 	 0.644594 	 0.630249 	 0.7619 	 1
33.1 	 0.634924 	 0.637476 	 0.767565 	 1
33.2 	 0.613394 	 0.664689 	 0.790851 	 1
33.3 	 0.581861 	 0.711844 	 0.828113 	 1
33.4 	 0.54327 	 0.775918 	 0.87312 	 1
33.5 	 0.501941 	 0.848367 	 0.918295 	 1
33.6 	 0.463894 	 0.915517 	 0.95622 	 1
33.7 	 0.436682 	 0.962547 	 0.981034 	 1
33.8 	 0.42774 	 0.97887 	 0.989363 	 1
33.9 	 0.440976 	 0.961805 	 0.980654 	 1
34 	 0.474223 	 0.916784 	 0.956941 	 1
34.1 	 0.520479 	 0.854588 	 0.92223 	 1
34.2 	 0.571273 	 0.787465 	 0.881714 	 1
34.3 	 0.619005 	 0.725915 	 0.841011 	 1
34.4 	 0.657767 	 0.677061 	 0.805494 	 1
34.5 	 0.683442 	 0.644619 	 0.779753 	 1
34.6 	 0.693635 	 0.62994 	 0.767169 	 1
34.7 	 0.687587 	 0.633336 	 0.769571 	 1
34.8 	 0.666106 	 0.654959 	 0.786974 	 1
34.9 	 0.631506 	 0.694679 	 0.817427 	 1
35 	 0.58757 	 0.750828 	 0.857044 	 1
35.1 	 0.53953 	 0.818333 	 0.900307 	 1
35.2 	 0.494016 	 0.887463 	 0.940705 	 1
35.3 	 0.45861 	 0.944641 	 0.971705 	 1
35.4 	 0.440391 	 0.97602 	 0.987921 	 1
35.5 	 0.443283 	 0.97272 	 0.98624 	 1
35.6 	 0.466005 	 0.934988 	 0.966606 	 1
35.7 	 0.502938 	 0.872511 	 0.932189 	 1
35.8 	 0.546925 	 0.800385 	 0.888836 	 1
35.9 	 0.591369 	 0.733144 	 0.843915 	 1
36 	 0.630943 	 0.680463 	 0.804842 	 1
36.1 	 0.661611 	 0.646476 	 0.777684 	 1
36.2 	 0.680518 	 0.631881 	 0.766181 	 1
36.3 	 0.685975 	 0.636393 	 0.771344 	 1
36.4 	 0.677548 	 0.659687 	 0.79162 	 1
36.5 	 0.65621 	 0.70064 	 0.82344 	 1
36.6 	 0.624515 	 0.755921 	 0.861948 	 1
36.7 	 0.586744 	 0.819076 	 0.901722 	 1
36.8 	 0.548875 	 0.880774 	 0.937409 	 1
36.9 	 0.518057 	 0.930277 	 0.964261 	 1
37 	 0.501105 	 0.957792 	 0.978602 	 1
37.1 	 0.502028 	 0.957095 	 0.978244 	 1
37.2 	 0.520101 	 0.927573 	 0.962827 	 1
37.3 	 0.550366 	 0.874841 	 0.93403 	 1
37.4 	 0.586057 	 0.809419 	 0.895558 	 1
37.5 	 0.620823 	 0.743717 	 0.852836 	 1
37.6 	 0.649752 	 0.688477 	 0.812354 	 1
37.7 	 0.669533 	 0.650336 	 0.780697 	 1
37.8 	 0.678265 	 0.631726 	 0.763381 	 1
37.9 	 0.675223 	 0.632833 	 0.763723 	 1
38 	 0.660693 	 0.653746 	 0.782051 	 1
38.1 	 0.635928 	 0.694644 	 0.815483 	 1
38.2 	 0.603249 	 0.753564 	 0.858425 	 1
38.3 	 0.566271 	 0.823654 	 0.903661 	 1
38.4 	 0.530128 	 0.892718 	 0.943788 	 1
38.5 	 0.501372 	 0.946244 	 0.972595 	 1
38.6 	 0.486882 	 0.972402 	 0.986078 	 1
38.7 	 0.49144 	 0.966132 	 0.982879 	 1
38.8 	 0.515198 	 0.930279 	 0.964191 	 1
38.9 	 0.553451 	 0.873742 	 0.933255 	 1
39 	 0.598865 	 0.808105 	 0.894694 	 1
39.1 	 0.64395 	 0.7444 	 0.853837 	 1
39.2 	 0.682433 	 0.691007 	 0.816115 	 1
39.3 	 0.709715 	 0.652982 	 0.786532 	 1
39.4 	 0.72294 	 0.632581 	 0.769161 	 1
39.5 	 0.720932 	 0.630469 	 0.766658 	 1
39.6 	 0.704107 	 0.64688 	 0.779828 	 1
39.7 	 0.674382 	 0.681932 	 0.807336 	 1
39.8 	 0.635082 	 0.734639 	 0.845663 	 1
39.9 	 0.590862 	 0.800945 	 0.889403 	 1
40 	 0.547586 	 0.872055 	 0.931937 	 1
40.1 	 0.511956 	 0.934717 	 0.966444 	 1
40.2 	 0.49047 	 0.974397 	 0.987092 	 1
40.3 	 0.487519 	 0.980499 	 0.990193 	 1
40.4 	 0.503516 	 0.950991 	 0.975019 	 1
40.5 	 0.53476 	 0.893582 	 0.944057 	 1
40.6 	 0.57521 	 0.822487 	 0.90257 	 1
40.7 	 0.618481 	 0.7527 	 0.857565 	 1
40.8 	 0.658945 	 0.695196 	 0.816407 	 1
40.9 	 0.692083 	 0.655404 	 0.785439 	 1
41 	 0.714537 	 0.63473 	 0.768955 	 1
41.1 	 0.724154 	 0.633009 	 0.76869 	 1
41.2 	 0.720074 	 0.649902 	 0.783876 	 1
41.3 	 0.702867 	 0.684656 	 0.811683 	 1
41.4 	 0.674669 	 0.734908 	 0.847855 	 1
41.5 	 0.639286 	 0.795593 	 0.887346 	 1
41.6 	 0.602126 	 0.858631 	 0.924876 	 1
41.7 	 0.569766 	 0.913738 	 0.95543 	 1
41.8 	 0.548775 	 0.95032 	 0.974745 	 1
41.9 	 0.543731 	 0.960159 	 0.97982 	 1
42 	 0.555347 	 0.940095 	 0.969417 	 1
42.1 	 0.580245 	 0.893597 	 0.944439 	 1
42.2 	 0.612634 	 0.8302 	 0.908052 	 1
42.3 	 0.646415 	 0.762674 	 0.865446 	 1
42.4 	 0.676474 	 0.703031 	 0.823174 	 1
42.5 	 0.699109 	 0.659351 	 0.788129 	 1
42.6 	 0.711975 	 0.635044 	 0.766331 	 1
42.7 	 0.713908 	 0.630581 	 0.761744 	 1
42.8 	 0.704765 	 0.645926 	 0.775421 	 1
42.9 	 0.685374 	 0.681333 	 0.805204 	 1
43 	 0.657603 	 0.735623 	 0.846093 	 1
43.1 	 0.624527 	 0.803382 	 0.89122 	 1
43.2 	 0.590588 	 0.873797 	 0.933204 	 1
43.3 	 0.561509 	 0.932792 	 0.96553 	 1
43.4 	 0.543543 	 0.967595 	 0.983627 	 1
43.5 	 0.541706 	 0.971135 	 0.985434 	 1
43.6 	 0.557606 	 0.94396 	 0.97141 	 1
43.7 	 0.588517 	 0.893191 	 0.944141 	 1
43.8 	 0.628551 	 0.829602 	 0.907732 	 1
43.9 	 0.670787 	 0.764421 	 0.867186 	 1
44 	 0.708899 	 0.706944 	 0.82784 	 1
44.1 	 0.737945 	 0.663382 	 0.794873 	 1
44.2 	 0.754622 	 0.636921 	 0.772802 	 1
44.3 	 0.757282 	 0.628678 	 0.764957 	 1
44.4 	 0.745857 	 0.638964 	 0.772944 	 1
44.5 	 0.721762 	 0.668021 	 0.796215 	 1
44.6 	 0.687775 	 0.715471 	 0.831893 	 1
44.7 	 0.647931 	 0.778468 	 0.874967 	 1
44.8 	 0.607371 	 0.849651 	 0.91893 	 1
44.9 	 0.572032 	 0.916714 	 0.956775 	 1
45 	 0.547896 	 0.964882 	 0.982218 	 1
45.1 	 0.539616 	 0.981864 	 0.990884 	 1
45.2 	 0.5489 	 0.962916 	 0.981205 	 1
45.3 	 0.573807 	 0.913067 	 0.954789 	 1
45.4 	 0.609606 	 0.845023 	 0.916151 	 1
45.5 	 0.650404 	 0.773935 	 0.871838 	 1
45.6 	 0.69047 	 0.712165 	 0.829142 	 1
45.7 	 0.7249 	 0.666763 	 0.794736 	 1
45.8 	 0.749889 	 0.640182 	 0.773549 	 1
45.9 	 0.762859 	 0.632593 	 0.768124 	 1
46 	 0.762563 	 0.643694 	 0.778505 	 1
46.1 	 0.749211 	 0.672976 	 0.802555 	 1
46.2 	 0.724565 	 0.718785 	 0.836513 	 1
46.3 	 0.691996 	 0.7771 	 0.875589 	 1
46.4 	 0.656393 	 0.840847 	 0.914522 	 1
46.5 	 0.623778 	 0.900219 	 0.948078 	 1
46.6 	 0.600356 	 0.944203 	 0.971562 	 1
46.7 	 0.590935 	 0.963177 	 0.981372 	 1
46.8 	 0.597232 	 0.951928 	 0.975579 	 1
46.9 	 0.61726 	 0.911895 	 0.95441 	 1
47 	 0.646331 	 0.851332 	 0.920472 	 1
47.1 	 0.678832 	 0.782849 	 0.878579 	 1
47.2 	 0.709631 	 0.7193 	 0.835133 	 1
47.3 	 0.734718 	 0.670054 	 0.79711 	 1
47.4 	 0.75133 	 0.639618 	 0.770846 	 1
